# Matter power spectrum P(k) at redshift z=49
# for k=1.04734e-05 to 1048.42 h/Mpc,
# number of wavenumbers equal to 142
#    1:k (h/Mpc)              2:P (Mpc/h)^3        
       1.047341822795e-05       2.938510899716e-02 
       1.318525235552e-05       3.669585428027e-02 
       1.659924925128e-05       4.582544896722e-02 
       2.089721669915e-05       5.722637389661e-02 
       2.630803713832e-05       7.146368914191e-02 
       3.311985648786e-05       8.924300020189e-02 
       4.169542896754e-05       1.114454023316e-01 
       5.249143508290e-05       1.391710731161e-01 
       6.608280152740e-05       1.737936631142e-01 
       8.319331812540e-05       2.170280889296e-01 
       1.047341822795e-04       2.710149769084e-01 
       1.318525235552e-04       3.384256216327e-01 
       1.659924925128e-04       4.225921772351e-01 
       2.089721669915e-04       5.276684101503e-01 
       2.630803713832e-04       6.588268839339e-01 
       3.311985648786e-04       8.224981702244e-01 
       4.169542896754e-04       1.026655741364e+00 
       5.249143508290e-04       1.281144653404e+00 
       6.608280152740e-04       1.598039260085e+00 
       8.319331812540e-04       1.991988227042e+00 
       1.047341822795e-03       2.480452393761e+00 
       1.318525235552e-03       3.083644832103e+00 
       1.659924925128e-03       3.823720153214e+00 
       2.089721669915e-03       4.723080269605e+00 
       2.630803713832e-03       5.800264747316e+00 
       3.311985648786e-03       7.063534786635e+00 
       4.169542896754e-03       8.502472025383e+00 
       5.249143508290e-03       1.008058696920e+01 
       6.608280152740e-03       1.173221513661e+01 
       8.319331812540e-03       1.335857124318e+01 
       1.047341822795e-02       1.481110708605e+01 
       1.318525235552e-02       1.588021897488e+01 
       1.659924925126e-02       1.631102404004e+01 
       2.089721654089e-02       1.585112650135e+01 
       2.630791508931e-02       1.438172093172e+01 
       3.310278308602e-02       1.212575050611e+01 
       4.112179913817e-02       9.857700002251e+00 
       4.790633046213e-02       8.552296818789e+00 
       5.282248740461e-02       7.911183755567e+00 
       5.687273538429e-02       7.511843399988e+00 
       6.048722083324e-02       7.210630344706e+00 
       6.385735826512e-02       6.947573139630e+00 
       6.708431928906e-02       6.692495053634e+00 
       7.022870640901e-02       6.429279991743e+00 
       7.333029721361e-02       6.150179108313e+00 
       7.641710878833e-02       5.853224095557e+00 
       7.951003363711e-02       5.540827078169e+00 
       8.262541400505e-02       5.218635089778e+00 
       8.577656644653e-02       4.894508322205e+00 
       8.897473246565e-02       4.577431810670e+00 
       9.222969670973e-02       4.276434601414e+00 
       9.555020312499e-02       3.999588914480e+00 
       9.894424323235e-02       3.753133684028e+00 
       1.024192605735e-01       3.540812963067e+00 
       1.059822984926e-01       3.363529347136e+00 
       1.096401085665e-01       3.219079502971e+00 
       1.133992310473e-01       3.102338955925e+00 
       1.172660549878e-01       3.005545297799e+00 
       1.212468633672e-01       2.919010694820e+00 
       1.253478670107e-01       2.832237233800e+00 
       1.295752300913e-01       2.735573606141e+00 
       1.339350893388e-01       2.622050687662e+00 
       1.384335686327e-01       2.489091860474e+00 
       1.430767903656e-01       2.339322577388e+00 
       1.478708847655e-01       2.180151171951e+00 
       1.528219982418e-01       2.022008525829e+00 
       1.579363017383e-01       1.875831772049e+00 
       1.632200000282e-01       1.750232026488e+00 
       1.686793428508e-01       1.649358200190e+00 
       1.743206387748e-01       1.571938059495e+00 
       1.801502726554e-01       1.511436919780e+00 
       1.861747275469e-01       1.458245471548e+00 
       1.924006119256e-01       1.401576148232e+00 
       1.988346930818e-01       1.333130918047e+00 
       2.054839375544e-01       1.251467461916e+00 
       2.123555595105e-01       1.162372541496e+00 
       2.194570780354e-01       1.075394426181e+00 
       2.267963843905e-01       9.990371024531e-01 
       2.343818204503e-01       9.377617033184e-01 
       2.422222697407e-01       8.904306539238e-01 
       2.503272628113e-01       8.504461569105e-01 
       2.587070990917e-01       8.094628734469e-01 
       2.673729879460e-01       7.624646706758e-01 
       2.763372123955e-01       7.101598633412e-01 
       2.856133199770e-01       6.581780573893e-01 
       2.952163465218e-01       6.128991628295e-01 
       3.051630803903e-01       5.762033241808e-01 
       3.154723770231e-01       5.449119850522e-01 
       3.261655367948e-01       5.139896407228e-01 
       3.372667633926e-01       4.804976735492e-01 
       3.488037257572e-01       4.462504093867e-01 
       3.608082547023e-01       4.148666666640e-01 
       3.733172167353e-01       3.880402661741e-01 
       3.863736239360e-01       3.637223377113e-01 
       4.000280625708e-01       3.393100545761e-01 
       4.143405584858e-01       3.146566931550e-01 
       4.293830509108e-01       2.916169288162e-01 
       4.452427293213e-01       2.708407917132e-01 
       4.620266197792e-01       2.512057726928e-01 
       4.798680220853e-01       2.317232987852e-01 
       4.989357603236e-01       2.131188539183e-01 
       5.194478375363e-01       1.958607589964e-01 
       5.416922200805e-01       1.790758114632e-01 
       5.660596181252e-01       1.627991522272e-01 
       5.930973714948e-01       1.472401916749e-01 
       6.236024420741e-01       1.319722368529e-01 
       6.587913622011e-01       1.170310057307e-01 
       7.006324480591e-01       1.021462015855e-01 
       7.525470024267e-01       8.713743465744e-02 
       8.210088291817e-01       7.167389257666e-02 
       9.193244473557e-01       5.545861738380e-02 
       1.074684411951e+00       3.873957142479e-02 
       1.322179934285e+00       2.387388349516e-02 
       1.661679347706e+00       1.386663219985e-02 
       2.091875610655e+00       7.949425054727e-03 
       2.633515157824e+00       4.519500368918e-03 
       3.315399154419e+00       2.550395498513e-03 
       4.173840245739e+00       1.429475135842e-03 
       5.254553550130e+00       7.962863131110e-04 
       6.615090991892e+00       4.410699535473e-04 
       8.327906151023e+00       2.430553099194e-04 
       1.048421268056e+01       1.333040226433e-04 
       1.319884176621e+01       7.279197569575e-05 
       1.661635730573e+01       3.958832369398e-05 
       2.091875446364e+01       2.144958021510e-05 
       2.633515157736e+01       1.158111125200e-05 
       3.315399154419e+01       6.232057645820e-06 
       4.173840245739e+01       3.343059270296e-06 
       5.254553550130e+01       1.787796202851e-06 
       6.615090991892e+01       9.531279246959e-07 
       8.327906151023e+01       5.065155142651e-07 
       1.048421268056e+02       2.682322111182e-07 
       1.319884176621e+02       1.414688388198e-07 
       1.661635730573e+02       7.424012630463e-08 
       2.091875446364e+02       3.871153514302e-08 
       2.633515157736e+02       2.001595695341e-08 
       3.315399154419e+02       1.023643090116e-08 
       4.173840245739e+02       5.165035528256e-09 
       5.254553550130e+02       2.569088022201e-09 
       6.615090991892e+02       1.264412923252e-09 
       8.327906151023e+02       6.221239675546e-10 
       1.048421268056e+03       3.095505316081e-10 
